wavelength,intensity,reflectance,absorbance
900.893601,11680,43.11713241537155,0.3653501304185494
904.842517,12604,42.22587021340748,0.37442139149084025
908.787034,13584,41.55017893738721,0.38142710157054316
912.727152,14688,40.934173123014325,0.38791397800531485
916.662871,15964,40.03711784917112,0.3975371936116261
920.594191,17775,39.78201025044202,0.4003132750422581
924.521112,19799,39.63208359188902,0.4019530947444653
928.443633,21973,39.61811690887455,0.4021061707843529
932.361755,24238,39.761150937515374,0.40054105288192915
936.275478,26550,40.1956034639375,0.3958214468103268
941.486933,29471,40.731680349393265,0.3900676731102699
945.390391,31479,40.94403184058895,0.3878093937227479
949.28945,33411,41.081792248672045,0.38635061797812753
953.18411,35258,41.11959881042627,0.3859511312517894
957.074371,37288,41.34474652947177,0.3835796662373814
960.960233,39038,41.28951738288894,0.3841601933949311
964.841696,40736,41.28007134026469,0.38425956083199525
968.718759,42501,41.421957994249794,0.3827693760847618
972.591424,44154,41.54614827290947,0.38146923328445226
976.459689,45451,41.46308088087723,0.3823384311410174
980.323555,46583,41.40931960815688,0.38290190528247026
984.183022,47550,41.36797048997773,0.38333578504174
988.038089,48455,41.32340650531307,0.3838038845028546
991.888758,48961,41.14473474121196,0.38568573321338917
997.016139,49428,41.112913287585776,0.3860217477418025
1000.856543,49325,40.846155120157675,0.38884881767959234
1004.692548,49433,40.8554072482334,0.388750456079891
1008.524153,49051,40.556115952573876,0.3919436439393947
1012.35136,48919,40.49183855908354,0.392632503351698
1016.174167,48793,40.408616220424186,0.39352602157229377
1019.992575,48460,40.23379771847965,0.39540897189465934
1023.806584,47945,39.936860693699394,0.39862607659569965
1027.616194,47637,39.80497342825629,0.4000626616573182
1031.421404,47432,39.72629128035043,0.40092197739770036
1035.222216,47361,39.741384373977326,0.4007570085018101
1039.018628,47062,39.563525089741326,0.4027050199358683
1042.810641,46789,39.43181243573969,0.4041532606455059
1047.859816,46554,39.28408688167688,0.4057833371317342
1051.641564,46620,39.33712472788025,0.40519738718360326
1055.418913,46479,39.1920265108396,0.40680227977984756
1059.191864,46472,39.140578281998806,0.4073727621520649
1062.960415,46446,38.99879089138174,0.40894885752070653
1066.724566,46587,38.93573810498868,0.4096515879670562
1070.484319,46904,39.041118694856,0.40847774643459556
1074.239673,46786,38.79114501285134,0.4112674009767963
1077.990627,47118,38.867579004677175,0.41041250999015033
1081.737182,47207,38.73617356484065,0.4118832819584227
1085.479338,47286,38.61027190332326,0.4132971399533374
1089.217095,47341,38.508028437098375,0.41444871614246515
1092.950453,47447,38.36922504629668,0.41601697227720724
1096.679411,47447,38.20578477791735,0.41787087512692556
1101.644513,47173,37.77526866221432,0.42279243822382095
1105.363207,47007,37.46801743996046,0.4263392862940969
1109.077502,46768,37.16672097144628,0.42984575278170095
1112.787397,46097,36.53475783249982,0.43729376699284606
1116.492894,45310,35.844817492840534,0.44557362652230414
1120.193991,44402,35.03890405770111,0.4554494860980308
1123.890689,43017,33.76186103458831,0.4715736220352468
1127.582988,41282,32.310883262239265,0.49065116978571477
1131.270888,39240,30.66894886163802,0.5133011086413576
1134.954388,37341,29.120557752146553,0.535800311146096
1138.63349,35939,27.971576227390184,0.5532830599935084
1142.308192,35336,27.439469474599697,0.5616242897029393
1145.978495,35910,27.8249145726307,0.5555661603514587
1149.644399,37109,28.65028874957537,0.5428709966733695
1154.525428,38854,29.8520994199224,0.5250251206677554
1158.181068,39897,30.50789135621215,0.5155878088770556
1161.832308,40610,30.891290953210458,0.510163942066286
1165.479149,40908,30.91946638449038,0.5097680098465666
1169.121591,41043,30.814913808637158,0.5112390426821496
1172.759633,41011,30.543680643479554,0.5150786297931161
1176.393277,41027,30.277781877758265,0.5188759440178965
1180.022521,40998,29.977844560949396,0.5231995966024183
1183.647367,40686,29.467874758273037,0.5306511846128135
1187.267813,40287,28.876464896247718,0.539455974884401
1190.88386,39979,28.31634640583057,0.5479627834027827
1194.495507,39917,27.96150101220956,0.5534395187696101
1198.102756,40074,27.74304762300359,0.5568458326227668
1202.905578,40636,27.628313650301532,0.5586456223118295
1206.502562,41579,27.881043384966137,0.5546909777815465
1210.095147,42664,28.230747852785093,0.5492776169279703
1213.683332,43885,28.633412716536714,0.5431268868497917
1217.267119,45441,29.214805099620033,0.534397006647634
1220.846506,47010,29.755236124033953,0.5264365990218349
1224.421494,48303,30.14810977474582,0.5207399120522458
1227.992083,49897,30.718133407209038,0.5126051778195051
1231.558273,51583,31.26507703683949,0.5049404968847016
1235.120064,52813,31.515097266976966,0.5014813481466105
1238.677455,54126,31.85681325925228,0.4967976702530885
1242.230448,55471,32.19517574406835,0.49220919987855694
1245.779041,56720,32.39865424489772,0.4894730288721868
1249.323235,57830,32.520919560914166,0.4878371828016905
1254.041984,59072,32.584796482924865,0.48698498716243493
1257.575913,59934,32.61909556490457,0.4865280848842356
1261.105443,60780,32.60012550887412,0.48678072791652316
1264.630574,61856,32.70208828971716,0.4854245132803039
1268.151306,62618,32.699889813204656,0.48545371075249133
1271.667639,63494,32.77989447490423,0.4843924488448535
1275.179573,64449,32.83573724888805,0.4836532282105772
1278.687107,65036,32.73239720167094,0.48502218737962494
1282.190242,65651,32.72731804586241,0.4850895830087216
1285.688979,65987,32.63629574309186,0.48629914004158714
1289.183316,66526,32.61366198978341,0.48660043416965726
1292.673253,66706,32.46002471995406,0.4886511537724008
1296.158792,66797,32.33688022230183,0.49030188200524205
1299.639932,67087,32.29917430971811,0.49080857975300385
1304.274608,67081,32.038074496487226,0.4943335931083697
1307.745483,67223,31.979734069123,0.49512515199668344
1311.211958,67012,31.809443339488386,0.4974439309147621
1314.674035,66960,31.710250897415253,0.49880032174043265
1318.131712,66785,31.546702440222578,0.5010460306151375
1321.58499,66333,31.303769212981535,0.5044033669313631
1325.033869,65918,31.112768327449164,0.5070613448589469
1328.478349,65638,30.984997970147,0.5088485279652943
1331.91843,65083,30.74579201723348,0.512214314969839
1335.354112,64502,30.53334658770846,0.515225592526679
1338.785394,63760,30.309944856436584,0.5184148537533639
1342.212277,62944,30.028098866027086,0.5224721629102436
1345.634761,62265,29.812834864713462,0.5255967254915178
1349.052846,61726,29.667831411584327,0.5277141975457315
1353.60345,60845,29.441508922695775,0.5310399355027755
1357.01127,59855,29.086464868332172,0.536309059140388
1360.414691,58827,28.677352364795695,0.5424609473709658
1363.813713,57823,28.263834238426455,0.5487689226135379
1367.208336,56600,27.744010038822008,0.5568307670598449
1370.59856,55300,27.161500415035583,0.5660462430818075
1373.984384,54284,26.70142646335465,0.573465536814622
1377.365809,53181,26.186185298983695,0.5819277632878905
1380.742836,52249,25.80516113100383,0.5882934247906056
1384.115463,51488,25.493021206224718,0.5935786927598339
1387.48369,50808,25.200130940689817,0.5985972026045152
1390.847519,50091,24.895752051410764,0.6038747500133619
1394.206949,49443,24.65935841678969,0.6080182269970853
1398.679345,48370,24.229825176576668,0.6156497193797025
1402.02851,47589,23.89977852439998,0.6216061235738971
1405.373275,46681,23.51438890595957,0.6286663032550569
1408.713642,46119,23.297954564972493,0.6326822060185864
1412.049609,45868,23.22183464036735,0.634103471819132
1415.381178,45957,23.302403407362338,0.6325992835780427
1418.708347,46218,23.45829399762463,0.6297035751002124
1422.031117,46588,23.67529055437826,0.6257046824244203
1425.349487,46816,23.790068500111797,0.6236043074718665
1428.663459,47081,23.911972492673687,0.6213845975625739
1431.973032,47305,24.014396962220665,0.6195283146784947
1435.278205,47637,24.16514906331323,0.6168105215607008
1438.578979,48027,24.319561683790504,0.6140442567030253
1441.875354,48367,24.45569185029377,0.6116200464998343
1446.263678,48877,24.66591978037506,0.6079026852659549
1449.549788,49130,24.773968423653518,0.6060044202833421
1452.831499,49610,25.012982953256323,0.6018345128721001
1456.108811,49694,25.06342265462267,0.6009596221480328
1459.381724,49785,25.11476567623468,0.6000708695049495
1462.650238,49791,25.141255775202602,0.5996130336261813
1465.914352,49822,25.18755940223656,0.5988139122752867
1469.174067,49851,25.248299509225447,0.5977678665999364
1472.429384,49877,25.311464428351766,0.5966827274314792
1475.680301,49851,25.374114341558755,0.5956091074348484
1478.926819,49658,25.341661818590076,0.5961649089877326
1482.168937,49644,25.415841127954657,0.594895512906604
1485.406657,49569,25.450540648778535,0.5943029874613208
1488.639977,49446,25.476729028302326,0.5938563320724968
1492.944228,49332,25.572281662105002,0.5922305207396474
1496.167284,49381,25.67273899390688,0.5905277944963516
1499.385941,49276,25.71359988311051,0.5898371182257796
1502.600198,48968,25.712950467598887,0.5898480867846757
1505.810056,48888,25.81789952312299,0.5880790936971814
1509.015515,48589,25.81500371905217,0.5881278080498897
1512.216575,48357,25.84760937541759,0.5875796182596218
1515.413236,47943,25.796471366847634,0.5884396960023899
1518.605498,47650,25.802503898804368,0.5883381476542234
1521.79336,47445,25.882526226208206,0.5869933372553147
1524.976824,47159,25.90598717857163,0.586599853751782
1528.155888,46815,25.904714475431607,0.5866211901912927
1531.330553,46441,25.931220092354252,0.5861770487180775
1534.500819,45990,25.91131894754634,0.5865104798330747
1538.720997,45464,25.921216924278625,0.586344613484582
1541.880998,45004,25.913663348093213,0.586471187577623
1545.0366,44609,25.958254048612446,0.5857245215231663
1548.187803,44246,26.027058823529416,0.5845749063771724
1551.334607,43821,26.07135845217484,0.5838363392607849
1554.477011,43165,25.99033001968919,0.5851882058849062
1557.615017,42317,25.81422445082932,0.5881409181389275
1560.748623,41720,25.79352812434311,0.5884892495589943
1563.87783,41073,25.730770676456217,0.5895472058020974
1567.002638,40341,25.632537393094506,0.5912084003988748
1570.123047,39555,25.51112544340535,0.5932703817242296
1573.239056,38652,25.31204568375005,0.5966727543572493
1576.350667,37821,25.18931447181762,0.598783651682435
1580.492638,36884,25.11678583588696,0.6000359375084806
1583.593984,35944,24.914223925806294,0.603552636487677
1586.69093,35161,24.811589703059727,0.6053454091599171
1589.783478,34321,24.66315509596936,0.6079513659754905
1592.871626,33578,24.622175943918517,0.6086735696549426
1595.955375,32731,24.461351050393475,0.6115195596657775
1599.034725,31681,24.153362914169833,0.617022393136538
1602.109676,30694,23.866508043885638,0.6222111188319507
1605.180228,29912,23.750803947880357,0.6243216852298992
1608.24638,28935,23.44224708541614,0.6300007608270609
1611.308134,27854,23.013178006361795,0.6380234032642885
1614.365488,26784,22.629266644136532,0.6453295201754294
1617.418443,25316,21.895108282017574,0.6596529026679535
1620.466999,23578,20.883043266462956,0.6802062117270553
1624.524897,21217,19.406739353139177,0.7120474269967328
1627.563188,19559,18.33513006796344,0.7367160048417241
1630.59708,17894,17.205934672448773,0.7643217303629422
1633.626573,16597,16.37188655980271,0.7859012732267675
1636.651667,15643,15.852410340599318,0.7999046944534489
1639.672362,15207,15.815090218917375,0.8009283262606692
1642.688657,14848,15.877327116994772,0.799222607453253
1645.700553,14514,16.005028450443298,0.795743549519877
1648.70805,14146,16.13698067577742,0.7921777210708886
1651.711148,13491,15.96681421166,0.7967817280892096
1654.709847,12529,15.459694236393027,0.8107990998588613
1657.704147,10920,14.19158641662443,0.847969053909972
1660.694048,9294,12.874359329547028,0.890274373670491
1663.679549,7721,11.544557416267942,0.9376227119765126
1667.653374,6112,10.47867233575641,0.9796937396596545
1670.628611,5311,10.340329426424205,0.9854656250912793
1673.599448,4451,10.067402515154257,0.9970825670679909
1676.565887,3967,10.535960905131201,0.9773258495418393
1679.527926,3588,11.278053687056012,0.9477658423654454
1682.485566,3149,11.74386514507347,0.9301889444074589
1685.438807,2778,12.230880993263769,0.9125422595023118
1688.387649,2526,12.998507693099368,0.8861065044511444
1691.332091,2167,12.993164648039333,0.8862850581808439
1694.272135,1789,12.426199902757519,0.9056616640847108
1697.207779,1700,13.554457024398022,0.8679178750610571
1700.139024,1500,13.693627898484573,0.8634814775370852
