wavelength,intensity,reflectance,absorbance
900.893601,512,51200.0,-2.709269960975831
904.842517,550,55000.0,-2.7403626894942437
908.787034,608,60800.0,-2.783903579272735
912.727152,654,65400.0,-2.815577748324267
916.662871,712,71200.0,-2.8524799936368566
920.594191,793,79300.0,-2.8992731873176036
924.521112,870,87000.0,-2.9395192526186187
928.443633,961,96100.0,-2.9827233876685453
932.361755,1051,105100.0,-3.021602716028242
936.275478,1140,114000.0,-3.0569048513364727
941.486933,1236,123600.0,-3.092018470752797
945.390391,1295,129500.0,-3.1122697684172707
949.28945,1350,135000.0,-3.130333768495006
953.18411,1403,140300.0,-3.1470576710283598
957.074371,1458,145800.0,-3.163757523981956
960.960233,1510,151000.0,-3.1789769472931693
964.841696,1569,156900.0,-3.1956229435869368
968.718759,1617,161700.0,-3.208710019906401
972.591424,1685,168500.0,-3.2265999052073573
976.459689,1732,173200.0,-3.238547887681328
980.323555,1776,177600.0,-3.249442961442582
984.183022,1816,181600.0,-3.2591158441850663
988.038089,1857,185700.0,-3.2688119037397803
991.888758,1898,189800.0,-3.278296208091274
997.016139,1922,192200.0,-3.2837533833325265
1000.856543,1932,193200.0,-3.2860071220794747
1004.692548,1948,194800.0,-3.2895889525425965
1008.524153,1957,195700.0,-3.2915908256580013
1012.35136,1970,197000.0,-3.294466226161593
1016.174167,1973,197300.0,-3.295127085252191
1019.992575,1976,197600.0,-3.295786940251609
1023.806584,1982,198200.0,-3.2971036501492565
1027.616194,1983,198300.0,-3.2973227142053028
1031.421404,1986,198600.0,-3.2979792441593623
1035.222216,1991,199100.0,-3.2990712600274095
1039.018628,1988,198800.0,-3.2984163800612945
1042.810641,1989,198900.0,-3.2986347831244354
1047.859816,1999,199900.0,-3.3008127941181167
1051.641564,2000,200000.0,-3.3010299956639813
1055.418913,2007,200700.0,-3.3025473724874854
1059.191864,2009,200900.0,-3.3029799367482493
1062.960415,2016,201600.0,-3.3044905277734875
1066.724566,2029,202900.0,-3.307282047033346
1070.484319,2047,204700.0,-3.3111178426625054
1074.239673,2040,204000.0,-3.3096301674258988
1077.990627,2052,205200.0,-3.3121773564397787
1081.737182,2052,205200.0,-3.3121773564397787
1085.479338,2063,206300.0,-3.3144992279731516
1089.217095,2057,205700.0,-3.313234291694724
1092.950453,2061,206100.0,-3.3140779917792127
1096.679411,2061,206100.0,-3.3140779917792127
1101.644513,2054,205400.0,-3.3126004392612596
1105.363207,2049,204900.0,-3.311541958401195
1109.077502,2046,204600.0,-3.3109056293761414
1112.787397,2030,203000.0,-3.307496037913213
1116.492894,2014,201400.0,-3.3040594662175993
1120.193991,2005,200500.0,-3.302114376956201
1123.890689,1989,198900.0,-3.2986347831244354
1127.582988,1951,195100.0,-3.2902572693945182
1131.270888,1893,189300.0,-3.277150613963797
1134.954388,1836,183600.0,-3.2638726768652235
1138.63349,1767,176700.0,-3.247236549506764
1142.308192,1696,169600.0,-3.229425847920695
1145.978495,1628,162800.0,-3.2116544005531824
1149.644399,1581,158100.0,-3.198931869932209
1154.525428,1521,152100.0,-3.182129214052998
1158.181068,1500,150000.0,-3.1760912590556813
1161.832308,1475,147500.0,-3.1687920203141817
1165.479149,1464,146400.0,-3.165541076722373
1169.121591,1463,146300.0,-3.1652443261253107
1172.759633,1455,145500.0,-3.162862993321926
1176.393277,1451,145100.0,-3.161667412437736
1180.022521,1463,146300.0,-3.1652443261253107
1183.647367,1467,146700.0,-3.166430113843283
1187.267813,1473,147300.0,-3.168202746842631
1190.88386,1487,148700.0,-3.172310968521954
1194.495507,1501,150100.0,-3.1763806922432702
1198.102756,1517,151700.0,-3.1809855807867304
1202.905578,1549,154900.0,-3.190051417759206
1206.502562,1572,157200.0,-3.196452541703389
1210.095147,1597,159700.0,-3.203304916138483
1213.683332,1631,163100.0,-3.212453961040276
1217.267119,1674,167400.0,-3.2237554536572413
1220.846506,1718,171800.0,-3.2350231594952237
1224.421494,1754,175400.0,-3.2440295890300215
1227.992083,1795,179500.0,-3.254064452914338
1231.558273,1835,183500.0,-3.263636068588108
1235.120064,1876,187600.0,-3.2732328340430454
1238.677455,1911,191100.0,-3.281260687055013
1242.230448,1948,194800.0,-3.2895889525425965
1245.779041,1993,199300.0,-3.2995072987004876
1249.323235,2023,202300.0,-3.3059958827708047
1254.041984,2068,206800.0,-3.315550534421905
1257.575913,2094,209400.0,-3.3209766773428235
1261.105443,2124,212400.0,-3.3271545124094315
1264.630574,2152,215200.0,-3.3328422669943514
1268.151306,2166,216600.0,-3.3356584522893016
1271.667639,2189,218900.0,-3.3402457615679317
1275.179573,2218,221800.0,-3.3459615418131414
1278.687107,2230,223000.0,-3.3483048630481607
1282.190242,2245,224500.0,-3.351216345339342
1285.688979,2238,223800.0,-3.3498600821923312
1289.183316,2251,225100.0,-3.35237549500052
1292.673253,2237,223700.0,-3.34966598409663
1296.158792,2213,221300.0,-3.344981413927258
1299.639932,2193,219300.0,-3.341038631677523
1304.274608,2155,215500.0,-3.3334472744967503
1307.745483,2118,211800.0,-3.325925955771466
1311.211958,2077,207700.0,-3.317436496535099
1314.674035,2026,202600.0,-3.3066394410242617
1318.131712,1984,198400.0,-3.2975416678181597
1321.58499,1920,192000.0,-3.2833012287035497
1325.033869,1855,185500.0,-3.268343913951065
1328.478349,1793,179300.0,-3.253580289562183
1331.91843,1727,172700.0,-3.237292337567459
1335.354112,1661,166100.0,-3.2203696324513946
1338.785394,1592,159200.0,-3.20194306340165
1342.212277,1533,153300.0,-3.185542154854375
1345.634761,1475,147500.0,-3.1687920203141817
1349.052846,1415,141500.0,-3.150756439860309
1353.60345,1346,134600.0,-3.1290450598879582
1357.01127,1299,129900.0,-3.1136091510730277
1360.414691,1259,125900.0,-3.1000257301078626
1363.813713,1200,120000.0,-3.0791812460476247
1367.208336,1145,114500.0,-3.0588054866759067
1370.59856,1077,107700.0,-3.0322157032979815
1373.984384,1014,101400.0,-3.0060379549973173
1377.365809,932,93200.0,-2.9694159123539814
1380.742836,839,83900.0,-2.9237619608287004
1384.115463,746,74600.0,-2.8727388274726686
1387.48369,651,65100.0,-2.8135809885681917
1390.847519,557,55700.0,-2.745855195173729
1394.206949,487,48700.0,-2.6875289612146345
1398.679345,411,41100.0,-2.6138418218760693
1402.02851,363,36300.0,-2.5599066250361124
1405.373275,331,33100.0,-2.519827993775719
1408.713642,310,31000.0,-2.4913616938342726
1412.049609,288,28800.0,-2.459392487759231
1415.381178,274,27400.0,-2.437750562820388
1418.708347,268,26800.0,-2.428134794028789
1422.031117,254,25400.0,-2.404833716619938
1425.349487,249,24900.0,-2.3961993470957363
1428.663459,244,24400.0,-2.3873898263387296
1431.973032,247,24700.0,-2.392696953259666
1435.278205,242,24200.0,-2.383815365980431
1438.578979,229,22900.0,-2.359835482339888
1441.875354,239,23900.0,-2.3783979009481375
1446.263678,237,23700.0,-2.374748346010104
1449.549788,237,23700.0,-2.374748346010104
1452.831499,240,24000.0,-2.380211241711606
1456.108811,233,23300.0,-2.367355921026019
1459.381724,231,23100.0,-2.3636119798921444
1462.650238,238,23800.0,-2.376576957056512
1465.914352,235,23500.0,-2.3710678622717363
1469.174067,237,23700.0,-2.374748346010104
1472.429384,245,24500.0,-2.3891660843645326
1475.680301,242,24200.0,-2.383815365980431
1478.926819,244,24400.0,-2.3873898263387296
1482.168937,248,24800.0,-2.3944516808262164
1485.406657,247,24700.0,-2.392696953259666
1488.639977,259,25900.0,-2.413299764081252
1492.944228,266,26600.0,-2.424881636631067
1496.167284,265,26500.0,-2.423245873936808
1499.385941,264,26400.0,-2.4216039268698313
1502.600198,263,26300.0,-2.419955748489758
1505.810056,266,26600.0,-2.424881636631067
1509.015515,278,27800.0,-2.444044795918076
1512.216575,287,28700.0,-2.4578818967339924
1515.413236,289,28900.0,-2.4608978427565478
1518.605498,287,28700.0,-2.4578818967339924
1521.79336,300,30000.0,-2.4771212547196626
1524.976824,305,30500.0,-2.484299839346786
1528.155888,309,30900.0,-2.4899584794248346
1531.330553,308,30800.0,-2.4885507165004443
1534.500819,320,32000.0,-2.505149978319906
1538.720997,329,32900.0,-2.5171958979499744
1541.880998,334,33400.0,-2.5237464668115646
1545.0366,335,33500.0,-2.525044807036845
1548.187803,343,34300.0,-2.5352941200427703
1551.334607,348,34800.0,-2.5415792439465807
1554.477011,357,35700.0,-2.552668216112193
1557.615017,358,35800.0,-2.5538830266438746
1560.748623,354,35400.0,-2.5490032620257876
1563.87783,359,35900.0,-2.5550944485783194
1567.002638,363,36300.0,-2.5599066250361124
1570.123047,366,36600.0,-2.5634810853944106
1573.239056,368,36800.0,-2.5658478186735176
1576.350667,359,35900.0,-2.5550944485783194
1580.492638,368,36800.0,-2.5658478186735176
1583.593984,362,36200.0,-2.558708570533166
1586.69093,372,37200.0,-2.5705429398818973
1589.783478,367,36700.0,-2.5646660642520893
1592.871626,363,36300.0,-2.5599066250361124
1595.955375,368,36800.0,-2.5658478186735176
1599.034725,366,36600.0,-2.5634810853944106
1602.109676,363,36300.0,-2.5599066250361124
1605.180228,363,36300.0,-2.5599066250361124
1608.24638,366,36600.0,-2.5634810853944106
1611.308134,365,36500.0,-2.5622928644564746
1614.365488,362,36200.0,-2.558708570533166
1617.418443,355,35500.0,-2.550228353055094
1620.466999,350,35000.0,-2.5440680443502757
1624.524897,345,34500.0,-2.537819095073274
1627.563188,336,33600.0,-2.526339277389844
1630.59708,332,33200.0,-2.5211380837040362
1633.626573,330,33000.0,-2.5185139398778875
1636.651667,320,32000.0,-2.505149978319906
1639.672362,320,32000.0,-2.505149978319906
1642.688657,314,31400.0,-2.496929648073215
1645.700553,309,30900.0,-2.4899584794248346
1648.70805,297,29700.0,-2.4727564493172123
1651.711148,295,29500.0,-2.469822015978163
1654.709847,288,28800.0,-2.459392487759231
1657.704147,276,27600.0,-2.4409090820652177
1660.694048,262,26200.0,-2.4183012913197452
1663.679549,253,25300.0,-2.403120521175818
1667.653374,229,22900.0,-2.359835482339888
1670.628611,214,21400.0,-2.330413773349191
1673.599448,205,20500.0,-2.311753861055754
1676.565887,178,17800.0,-2.250420002308894
1679.527926,154,15400.0,-2.187520720836463
1682.485566,125,12500.0,-2.0969100130080562
1685.438807,110,11000.0,-2.041392685158225
1688.387649,81,8100.0,-1.9084850188786497
1691.332091,78,7800.0,-1.8920946026904804
1694.272135,67,6700.0,-1.8260748027008264
1697.207779,52,5200.0,-1.7160033436347992
1700.139024,43,4300.0,-1.6334684555795866
