wavelength,intensity,reflectance,absorbance
900.893601,18559,68.51120380966445,0.16423840142965504
904.842517,20186,67.62705618278669,0.1698795170755795
908.787034,21879,66.9225828158933,0.1744273061877601
912.727152,23523,65.556546457834,0.18338393328658192
916.662871,25639,64.3016577633988,0.19177783036946858
920.594191,28506,63.798930194042214,0.19518660364121293
924.521112,31698,63.45056748803971,0.19756448931676165
928.443633,35413,63.85092495762865,0.1948328070758279
932.361755,38984,63.951180301514135,0.19415143564655937
936.275478,42750,64.72173439108582,0.1889498531636232
941.486933,47255,65.31083284960057,0.18501477804173064
945.390391,50522,65.71283638775802,0.1823497867896011
949.28945,53497,65.77931339759985,0.18191066398182076
953.18411,56660,66.07965479036679,0.17993223449866713
957.074371,59804,66.31037388566106,0.17841852334690098
960.960233,62698,66.31410832707543,0.17839406561070298
964.841696,65490,66.36468656897915,0.17806295237675498
968.718759,68211,66.47921641245553,0.1773141082033714
972.591424,70830,66.6465933362816,0.1762220447957546
976.459689,72924,66.5255706179642,0.17701139163308896
980.323555,74988,66.65955517627606,0.17613758874229477
984.183022,76349,66.42277978841871,0.17768295316537885
988.038089,77702,66.26584113663887,0.1787102850009573
991.888758,78779,66.20250930695731,0.1791255489664708
997.016139,79391,66.03535038469536,0.18022351344314244
1000.856543,79392,65.74471256562711,0.18213916901170615
1004.692548,79222,65.47543286912682,0.18392162169919085
1008.524153,79005,65.32254063797066,0.1849369322698228
1012.35136,78807,65.23110287057577,0.18554527874324467
1016.174167,78405,64.93221475954252,0.1875397836135529
1019.992575,77889,64.66715374524684,0.18931625363361734
1023.806584,77249,64.34628327724653,0.1914765334340224
1027.616194,76875,64.23593702998095,0.1922219363044377
1031.421404,76452,64.03175959194954,0.19360456360494144
1035.222216,76248,63.98093527896419,0.19394941565040597
1039.018628,76000,63.89078039225576,0.19456180715694246
1042.810641,75685,63.784152775202685,0.19528720869539598
1047.859816,75373,63.60268678379154,0.19652453795648378
1051.641564,75411,63.630457161179265,0.19633495650816882
1055.418913,75233,63.437976946362774,0.19765067523396618
1059.191864,75363,63.47373474492761,0.19740594738646183
1062.960415,75619,63.49415597501176,0.19726624548914892
1066.724566,75775,63.33001813607909,0.19839038760195726
1070.484319,76111,63.35192275678375,0.19824019956524144
1074.239673,76274,63.24019567200067,0.19900679498368237
1077.990627,76692,63.26313445024623,0.19884929422993605
1081.737182,77068,63.23891423507402,0.1990155951877094
1085.479338,77209,63.04319425165347,0.20036179027227552
1089.217095,77467,63.013063495420454,0.20056940585044117
1092.950453,77415,62.60361154465102,0.20340061201847914
1096.679411,77499,62.40458015267175,0.2047835343234406
1101.644513,77221,61.837153061387916,0.20875051323900093
1105.363207,76918,61.30927235192374,0.2124738382589928
1109.077502,76358,60.6820150516955,0.2169400061433508
1112.787397,75352,59.721176479912494,0.22387164545971475
1116.492894,74148,58.65860797746942,0.23166824743928688
1120.193991,72696,57.36651883650826,0.24134150354209827
1123.890689,70525,55.35149474543414,0.25687064667453274
1127.582988,67633,52.93546745978945,0.2762532474221567
1131.270888,64231,50.20125520723424,0.2992854238358503
1134.954388,61435,47.91037908741392,0.31957039280454114
1138.63349,59336,46.18162572771707,0.3355307827192097
1142.308192,58559,45.47282920995822,0.34224802419716777
1145.978495,59403,46.02849903530998,0.3369731869854676
1149.644399,61274,47.307062783731205,0.3250740157311289
1154.525428,64071,49.22669125273712,0.3077993541311613
1158.181068,65858,50.35939316082462,0.2979195118543489
1161.832308,66844,50.847019268071904,0.29373450101795096
1165.479149,67471,50.996560976531505,0.29245911016234083
1169.121591,67703,50.83113099885879,0.2938702270846486
1172.759633,67689,50.41260147464065,0.2974608907997054
1176.393277,67825,50.05461174004812,0.30055590298013857
1180.022521,67755,49.54263276811371,0.3050209180916737
1183.647367,67423,48.83282996183068,0.31128810673791657
1187.267813,66777,47.86367057305666,0.3199939992349558
1190.88386,66335,46.983787459185336,0.32805197678096365
1194.495507,66261,46.415237081193915,0.33333942690211915
1198.102756,66565,46.08264623010516,0.3364625901287883
1202.905578,67503,45.89511901605238,0.3382334995849856
1206.502562,69202,46.403808757459934,0.3334463717196468
1210.095147,70819,46.860897529214036,0.3291893975945378
1213.683332,72850,47.53205232766777,0.32301343343639216
1217.267119,75375,48.45989160414296,0.31461756163423743
1220.846506,77940,49.33254846856427,0.3068664487534159
1224.421494,80373,50.164462392100816,0.2996038376863984
1227.992083,82809,50.979776525995014,0.2926020726278328
1231.558273,85522,51.83591335022365,0.2853692447803428
1235.120064,87861,52.429287504475475,0.28042604415500094
1238.677455,90101,53.030534890290994,0.27547399236606385
1242.230448,92287,53.5630542786832,0.2711346665637084
1245.779041,94453,53.95187040538302,0.26799349458336774
1249.323235,96329,54.17097804570812,0.2662333232457383
1254.041984,98415,54.28684902943951,0.2653053653592534
1257.575913,99967,54.407066545480276,0.2643446892283493
1261.105443,101410,54.392542412881284,0.2644606409443533
1264.630574,103285,54.60481099656357,0.2627690917785278
1268.151306,104556,54.60042925851075,0.2628039429386747
1271.667639,106161,54.807483815011,0.2611601357190778
1275.179573,107522,54.78074354101601,0.26137207734732143
1278.687107,108884,54.80094619759425,0.2612119428870471
1282.190242,109808,54.73978065802593,0.2616969471378031
1285.688979,110501,54.652330245463396,0.2623913160350283
1289.183316,111425,54.62491788491142,0.26260920287564815
1292.673253,111748,54.37805958092865,0.2645762937755639
1296.158792,111885,54.16428647502494,0.2662869735919948
1299.639932,112244,54.04010495654895,0.26728381616359354
1304.274608,112590,53.77330104738297,0.26943330213812855
1307.745483,112695,53.611950239052355,0.2707383941801512
1311.211958,112472,53.38852311942544,0.2725520928142279
1314.674035,112325,53.193756452392,0.2741393394605732
1318.131712,111990,52.89983089437039,0.27654571627784225
1321.58499,111281,52.51556151221561,0.2797119865469328
1325.033869,110708,52.25328978420526,0.2818863618647437
1328.478349,110046,51.948186822005496,0.28442960627696806
1331.91843,109173,51.574302842484684,0.28756663390659504
1335.354112,108216,51.22626638453782,0.2905072964305545
1338.785394,106908,50.82144894466628,0.29395295715848135
1342.212277,105574,50.36518984624338,0.2978695246830284
1345.634761,104522,50.04572594121224,0.30063300668430687
1349.052846,103507,49.74934753456986,0.30321261067693095
1353.60345,101798,49.25773235783687,0.30752558533383906
1357.01127,100489,48.83250803030377,0.31129096984346794
1360.414691,98856,48.19093860598438,0.3170346149432408
1363.813713,96826,47.32846815229027,0.3248775518128754
1367.208336,94954,46.54425316654249,0.3321339338476738
1370.59856,92704,45.53308742270269,0.341672900862838
1373.984384,91041,44.78160354156419,0.34890035924327356
1377.365809,89184,43.913968329000234,0.3573973156736717
1380.742836,87432,43.18162736140264,0.3647009946845221
1384.115463,86106,42.633275403651055,0.37025130035574916
1387.48369,85000,42.15893422214286,0.3751103766212406
1390.847519,84035,41.766275850757694,0.37917424749215567
1394.206949,82943,41.367254518613095,0.38334330160830127
1398.679345,81050,40.60011020387717,0.391472787583624
1402.02851,79726,40.03937344000321,0.3975127272386295
1405.373275,78312,39.447715858775645,0.4039781386813966
1408.713642,77367,39.083519825413106,0.4080063310351958
1412.049609,76800,38.88194166696199,0.41025205562354317
1415.381178,77116,39.10151100294088,0.4078064598020868
1418.708347,77391,39.280384931632,0.4058242649567639
1422.031117,77836,39.55503381966572,0.4027982398277162
1425.349487,78420,39.8499908531008,0.39957177395289534
1428.663459,78723,39.98263015952827,0.398128640277974
1431.973032,79199,40.205395307280725,0.3957156634589347
1435.278205,79702,40.430982443146945,0.393285705501508
1438.578979,80417,40.72097345087931,0.3901818485668753
1441.875354,81042,40.97707484300262,0.3874590470301078
1446.263678,81730,41.245281495387474,0.3846257280286768
1449.549788,82402,41.55148679108278,0.3814134317207708
1452.831499,82899,41.79704240761936,0.3788544481650243
1456.108811,83178,41.95124903542086,0.37725510417698305
1459.381724,83297,42.020380366241234,0.37654002070179354
1462.650238,83415,42.119215329849276,0.3755197282057072
1465.914352,83393,42.15941032537259,0.37510547213677514
1469.174067,83438,42.25928495819046,0.3740778556353242
1472.429384,83488,42.36829685414584,0.37295899367455726
1475.680301,83441,42.471394250346115,0.37190348176202415
1478.926819,83204,42.46098574155159,0.3720099278066862
1482.168937,83011,42.49847691307397,0.37162663418734365
1485.406657,82867,42.54695378043395,0.37113152849846953
1488.639977,82846,42.68586120371181,0.3697159520952575
1492.944228,82607,42.82107904122087,0.36834239318955897
1496.167284,82551,42.917524486867556,0.3673653363961848
1499.385941,82553,43.078472504879095,0.36573970450272963
1502.600198,82033,43.07528315856354,0.3657718590036145
1505.810056,81737,43.16555500984912,0.364862670687834
1509.015515,81193,43.13728615450005,0.36514718063353824
1512.216575,80768,43.171820295587565,0.36479963937563803
1515.413236,80183,43.14370113693227,0.36508260113429025
1518.605498,79647,43.12889880436666,0.3652316304070837
1521.79336,79101,43.15172741109274,0.3650018143151774
1524.976824,78659,43.20997148962585,0.3644160202405462
1528.155888,78255,43.30179282868526,0.3634941221342505
1531.330553,77375,43.20381031084409,0.3644779493887844
1534.500819,76816,43.27905797509719,0.3637222007820218
1538.720997,75930,43.291351422234634,0.36359885664333935
1541.880998,75290,43.35258451421958,0.3629850064506195
1545.0366,74574,43.39507358204004,0.3625595708924445
1548.187803,73839,43.434705882352944,0.36216311496148423
1551.334607,72999,43.43084584218324,0.36220171240577487
1554.477011,71929,43.30958989890475,0.36341592861109345
1557.615017,70633,43.08755619811016,0.3656481371433063
1560.748623,69624,43.04526850741286,0.3660745787992174
1563.87783,68581,42.96355230350946,0.36689981757777573
1567.002638,67152,42.66815773087138,0.36989610812707285
1570.123047,65717,42.38439213157046,0.37279404102614216
1573.239056,64335,42.13107883328313,0.3753974199298112
1576.350667,62935,41.91558938906538,0.3776244227029468
1580.492638,61205,41.67858358869595,0.38008704858727077
1583.593984,59639,41.338176071421145,0.3836486892857016
1586.69093,58368,41.18776109292085,0.3852318150214198
1589.783478,56994,40.95602871535438,0.387682161178288
1592.871626,55610,40.77786658649439,0.3895754993511534
1595.955375,54146,40.46574543932679,0.3929124548462638
1599.034725,52700,40.17809493313816,0.39601065941555247
1602.109676,50895,39.574051179173765,0.4025894889125791
1605.180228,49325,39.16516464058567,0.40710004345183354
1608.24638,47784,38.71312717226629,0.4121417457876111
1611.308134,45947,37.9617466022225,0.42065381409888053
1614.365488,44171,37.319195674214264,0.428067725000958
1617.418443,41545,35.931121566456795,0.4445292263655956
1620.466999,38781,34.34834595456357,0.4640941715622616
1624.524897,34933,31.952473291380066,0.4954955195016537
1627.563188,32139,30.127958753222405,0.5210302918992429
1630.59708,29405,28.27431032990702,0.5486079796321675
1633.626573,27469,27.096424167694206,0.5670880178600624
1636.651667,25737,26.081537105159153,0.5836668172109282
1639.672362,24975,25.973688315740212,0.5854663753057137
1642.688657,24201,25.878717238576943,0.5870572546654134
1645.700553,23906,26.361871995059765,0.5790237530970768
1648.70805,23114,26.367183043964314,0.5789362658762853
1651.711148,22050,26.096527564087392,0.5834172765729565
1654.709847,20471,25.259430179040756,0.5975764508071948
1657.704147,17781,23.108113376739833,0.6362355103200098
1660.694048,15356,21.27164427205984,0.6721989383679732
1663.679549,12906,19.297248803827753,0.7145046036598538
1667.653374,10383,17.8010560965574,0.7495542312134978
1670.628611,8734,17.00478953311787,0.7694287389250952
1673.599448,7349,16.62218402243735,0.7793119139708662
1676.565887,6687,17.76001274832678,0.7505567268160896
1679.527926,5944,18.683598415791792,0.7285394759849809
1682.485566,5248,19.571865443425075,0.7083677786763989
1685.438807,4508,19.84766433320125,0.7022905935298397
1688.387649,4013,20.650439973241394,0.6850706909366175
1691.332091,3597,21.56733421273534,0.6662035316821507
1694.272135,3141,21.8170452177537,0.661204068253579
1697.207779,2797,22.301068410141923,0.6516743300678038
1700.139024,2396,21.873288296512687,0.6600859228754926
