wavelength,intensity,reflectance,absorbance
900.893601,21401,2140100.0,-4.330434067009712
904.842517,23242,2324200.0,-4.366273496850445
908.787034,25357,2535700.0,-4.404097870640489
912.727152,27414,2741400.0,-4.437972408439348
916.662871,29988,2998800.0,-4.476947502174075
920.594191,33320,3332000.0,-4.52270499273475
924.521112,37268,3726800.0,-4.571336086816895
928.443633,41305,4130500.0,-4.616002626498412
932.361755,45599,4559900.0,-4.658955318558207
936.275478,49841,4984100.0,-4.697586747337411
941.486933,54987,5498700.0,-4.740260025937805
945.390391,58577,5857700.0,-4.767727125679337
949.28945,62113,6211300.0,-4.793182505770767
953.18411,65631,6563100.0,-4.81710902152301
957.074371,69406,6940600.0,-4.8413970159052395
960.960233,72889,7288900.0,-4.862661991970102
964.841696,76154,7615400.0,-4.881692719652417
968.718759,79209,7920900.0,-4.898774530431306
972.591424,82606,8260600.0,-4.917011592989335
976.459689,85144,8514400.0,-4.930154049142989
980.323555,87594,8759400.0,-4.942474358951938
984.183022,89158,8915800.0,-4.950160317785927
988.038089,90722,9072200.0,-4.957712615836635
991.888758,92101,9210100.0,-4.964264345637937
997.016139,92837,9283700.0,-4.9677210979138176
1000.856543,92915,9291500.0,-4.9680858312311384
1004.692548,92969,9296900.0,-4.9683381595938
1008.524153,92902,9290200.0,-4.96802506361274
1012.35136,93176,9317600.0,-4.969304062463188
1016.174167,92994,9299400.0,-4.968454928651225
1019.992575,92913,9291300.0,-4.9680764829201856
1023.806584,92320,9232000.0,-4.965295795811656
1027.616194,92091,9209100.0,-4.964217188922952
1031.421404,91754,9175400.0,-4.9626250063307875
1035.222216,91704,9170400.0,-4.962388279400015
1039.018628,91586,9158600.0,-4.961829091708983
1042.810641,91116,9111600.0,-4.959594645925542
1047.859816,91081,9108100.0,-4.9594277901918735
1051.641564,91319,9131900.0,-4.960561147048818
1055.418913,91191,9119100.0,-4.95995197820549
1059.191864,91365,9136500.0,-4.960779858557102
1062.960415,91772,9177200.0,-4.962710196447712
1066.724566,92086,9208600.0,-4.964193608645174
1070.484319,92772,9277200.0,-4.967416919318192
1074.239673,92963,9296300.0,-4.968310130347707
1077.990627,93806,9380600.0,-4.972230617521441
1081.737182,94221,9422100.0,-4.974147709243939
1085.479338,94743,9474300.0,-4.976547132374393
1089.217095,95164,9516400.0,-4.978472688319179
1092.950453,95532,9553200.0,-4.980148869966749
1096.679411,95992,9599200.0,-4.982235040324692
1101.644513,95929,9592900.0,-4.981949917244439
1105.363207,96101,9610100.0,-4.9827279068383925
1109.077502,96162,9616200.0,-4.9830034873118585
1112.787397,95892,9589200.0,-4.981782376714156
1116.492894,95613,9561300.0,-4.980516945042109
1120.193991,95057,9505700.0,-4.9779841038362385
1123.890689,94255,9425500.0,-4.974304397761786
1127.582988,93248,9324800.0,-4.969639525753878
1131.270888,92136,9213600.0,-4.964429353829011
1134.954388,91755,9175500.0,-4.962629739553484
1138.63349,91304,9130400.0,-4.960489804258006
1142.308192,90832,9083200.0,-4.958238876881338
1145.978495,90298,9029800.0,-4.95567813128158
1149.644399,89348,8934800.0,-4.951084835535729
1154.525428,87103,8710300.0,-4.940033113228197
1158.181068,85722,8572200.0,-4.933092295113971
1161.832308,84281,8428100.0,-4.925729679901243
1165.479149,83554,8355400.0,-4.921967245807445
1169.121591,83162,8316200.0,-4.919924925326569
1172.759633,83318,8331800.0,-4.920738836415066
1176.393277,84856,8485600.0,-4.928682555843618
1180.022521,87830,8783000.0,-4.943642882752129
1183.647367,90989,9098900.0,-4.958988892012759
1187.267813,93755,9375500.0,-4.971994438154483
1190.88386,96191,9619100.0,-4.983134439676216
1194.495507,98336,9833600.0,-4.992712538576284
1198.102756,100286,10028600.0,-5.001240309420002
1202.905578,103331,10333100.0,-5.014230632354297
1206.502562,106051,10605100.0,-5.0255147680193355
1210.095147,108431,10843100.0,-5.035153463053176
1213.683332,110871,11087100.0,-5.044817964661527
1217.267119,113433,11343300.0,-5.054739418163629
1220.846506,115930,11593000.0,-5.064195835864643
1224.421494,117723,11772300.0,-5.070861320933898
1227.992083,119999,11999900.0,-5.0791776269118625
1231.558273,122474,12247400.0,-5.088043902129145
1235.120064,124475,12447500.0,-5.095082134947497
1238.677455,126335,12633500.0,-5.10152368468927
1242.230448,128680,12868000.0,-5.109511052229932
1245.779041,130848,13084800.0,-5.116767088874242
1249.323235,133049,13304900.0,-5.124011614730219
1254.041984,135574,13557400.0,-5.132176409743424
1257.575913,137283,13728300.0,-5.137616761102022
1261.105443,139187,13918700.0,-5.143598674269404
1264.630574,141346,14134600.0,-5.150283522747662
1268.151306,143131,14313100.0,-5.1557337055339145
1271.667639,145223,14522300.0,-5.162035404119209
1275.179573,147092,14709200.0,-5.167589053078756
1278.687107,149222,14922200.0,-5.173832856476143
1282.190242,150642,15064200.0,-5.17794607296186
1285.688979,152059,15205900.0,-5.182012130068202
1289.183316,153609,15360900.0,-5.186416661892306
1292.673253,154294,15429400.0,-5.18834903806862
1296.158792,154699,15469900.0,-5.189487506356862
1299.639932,155653,15565300.0,-5.192157495535013
1304.274608,155993,15599300.0,-5.193105110344321
1307.745483,156036,15603600.0,-5.193224808595702
1311.211958,155993,15599300.0,-5.193105110344321
1314.674035,156335,15633500.0,-5.194056217975878
1318.131712,156241,15624100.0,-5.193795009933485
1321.58499,155719,15571900.0,-5.192341606092384
1325.033869,155046,15504600.0,-5.190460566443478
1328.478349,154066,15406600.0,-5.187706807170198
1331.91843,152178,15217800.0,-5.182351872084999
1335.354112,149711,14971100.0,-5.1752537112568335
1338.785394,145534,14553400.0,-5.162964466087664
1342.212277,140764,14076400.0,-5.148491599405306
1345.634761,136658,13665800.0,-5.135635060501115
1349.052846,133881,13388100.0,-5.126718947582214
1353.60345,131095,13109500.0,-5.117586127892836
1357.01127,128836,12883600.0,-5.110037232719413
1360.414691,126292,12629200.0,-5.101375840928293
1363.813713,123493,12349300.0,-5.091642341016477
1367.208336,121648,12164800.0,-5.085104973142678
1370.59856,120217,12021700.0,-5.079965886004065
1373.984384,119819,11981900.0,-5.078525690681702
1377.365809,119037,11903700.0,-5.075681973142467
1380.742836,117705,11770500.0,-5.070794911664911
1384.115463,115969,11596900.0,-5.0643419122595725
1387.48369,113538,11353800.0,-5.055141239751874
1390.847519,112100,11210000.0,-5.0496056125949735
1394.206949,112515,11251500.0,-5.051210424518249
1398.679345,114044,11404400.0,-5.057072441428217
1402.02851,114613,11461300.0,-5.0592338803544346
1405.373275,114553,11455300.0,-5.059006467304422
1408.713642,114819,11481900.0,-5.060013760121104
1412.049609,115257,11525700.0,-5.061667311233522
1415.381178,116272,11627200.0,-5.065475142849185
1418.708347,117643,11764300.0,-5.070566090867616
1422.031117,119057,11905700.0,-5.075754934995
1425.349487,120570,12057000.0,-5.081239260911698
1428.663459,121490,12149000.0,-5.084540532061484
1431.973032,122198,12219800.0,-5.087064097919041
1435.278205,122691,12269100.0,-5.088812706217688
1438.578979,122945,12294500.0,-5.0897108712889345
1441.875354,123502,12350200.0,-5.091673990647756
1446.263678,124102,12410200.0,-5.0937787805476
1449.549788,124590,12459000.0,-5.095483185829541
1452.831499,125321,12532100.0,-5.098023851680057
1456.108811,125899,12589900.0,-5.100022280574847
1459.381724,126226,12622600.0,-5.101148819991502
1462.650238,127003,12700300.0,-5.103813979759559
1465.914352,127720,12772000.0,-5.106258909867408
1469.174067,128477,12847700.0,-5.1088253870671005
1472.429384,129149,12914900.0,-5.111091047782558
1475.680301,129711,12971100.0,-5.112976807516084
1478.926819,129927,12992700.0,-5.11369941075392
1482.168937,130281,13028100.0,-5.114881083426878
1485.406657,130765,13076500.0,-5.116491518140315
1488.639977,130831,13083100.0,-5.116710660913246
1492.944228,130638,13063800.0,-5.116069522956317
1496.167284,130610,13061000.0,-5.115976429454817
1499.385941,130588,13058800.0,-5.1159032705590795
1502.600198,130063,13006300.0,-5.114153767113211
1505.810056,129650,12965000.0,-5.11277252110537
1509.015515,129021,12902100.0,-5.1106604036470005
1512.216575,128646,12864600.0,-5.109396287204473
1515.413236,127360,12736000.0,-5.105033050393594
1518.605498,126683,12668300.0,-5.10271833941742
1521.79336,125577,12557700.0,-5.098910103670503
1524.976824,124631,12463100.0,-5.095626079678122
1528.155888,123639,12363900.0,-5.092155483804417
1531.330553,122425,12242500.0,-5.087870112690256
1534.500819,121599,12159900.0,-5.084930003421357
1538.720997,119934,11993400.0,-5.078942318371443
1541.880998,118781,11878100.0,-5.074746977218607
1545.0366,117669,11766900.0,-5.070662062654652
1548.187803,116688,11668800.0,-5.067026196218923
1551.334607,115416,11541600.0,-5.062266018785413
1554.477011,114094,11409400.0,-5.057262806246378
1557.615017,112539,11253900.0,-5.0513030517775315
1560.748623,111092,11109200.0,-5.045682785484967
1563.87783,109851,10985100.0,-5.040804014761355
1567.002638,108271,10827100.0,-5.034512147977805
1570.123047,106466,10646600.0,-5.027210937634827
1573.239056,104829,10482900.0,-5.020481442931405
1576.350667,102576,10257600.0,-5.011045759539656
1580.492638,100234,10023400.0,-5.00101506192783
1583.593984,97779,9777900.0,-4.990245591357938
1586.69093,96015,9601500.0,-4.982339086251471
1589.783478,93747,9374700.0,-4.971957378753972
1592.871626,91399,9139900.0,-4.960941444127073
1595.955375,89104,8910400.0,-4.949897200545684
1599.034725,86806,8680600.0,-4.938549744494861
1602.109676,83910,8391000.0,-4.923813721091189
1605.180228,81766,8176600.0,-4.912572752547038
1608.24638,79017,7901700.0,-4.897720537011103
1611.308134,76969,7696900.0,-4.886315844136417
1614.365488,75405,7540500.0,-4.877400144283756
1617.418443,73345,7334500.0,-4.865370512911087
1620.466999,71352,7135200.0,-4.853406150916544
1624.524897,69156,6915600.0,-4.839829865628981
1627.563188,67627,6762700.0,-4.830120122123792
1630.59708,65535,6553500.0,-4.81647330376525
1633.626573,63495,6349500.0,-4.802739527529692
1636.651667,60959,6095900.0,-4.785037834019797
1639.672362,58770,5877000.0,-4.769155690714399
1642.688657,55904,5590400.0,-4.747442883302837
1645.700553,53242,5324200.0,-4.72625436108982
1648.70805,50152,5015200.0,-4.700288256830903
1651.711148,47166,4716600.0,-4.673629046659358
1654.709847,43848,4384800.0,-4.641949789064144
1657.704147,39683,3968300.0,-4.598604497005227
1660.694048,35364,3536400.0,-4.54856138189755
1663.679549,31045,3104500.0,-4.491991664182002
1667.653374,25966,2596600.0,-4.414405052758884
1670.628611,23007,2300700.0,-4.361859992489294
1673.599448,20627,2062700.0,-4.314436068584539
1676.565887,18723,1872300.0,-4.272375437300545
1679.527926,16332,1633200.0,-4.213039371250959
1682.485566,13814,1381400.0,-4.140319451670128
1685.438807,11944,1194400.0,-4.077149794716969
1688.387649,11142,1114200.0,-4.046963154123424
1691.332091,10036,1003600.0,-4.001560652642573
1694.272135,9004,900400.0,-3.9544354863284825
1697.207779,7689,768900.0,-3.8858698609039064
1700.139024,6404,640400.0,-3.8064513232472623
